Amplitude
-127
-162
-197
-229
-245
-254
-261
-265
-268
-268
-267
-265
-263
-260
-256
-253
-249
-247
-245
-243
-241
-238
-236
-234
-232
-231
-230
-229
-229
-229
-229
-230
-230
-230
-229
-229
-227
-225
-221
-218
-215
-213
-213
-213
-212
-211
-210
-209
-206
-203
-201
-198
-198
-200
-204
-210
-216
-224
-233
-243
-253
-262
-270
-275
-281
-286
-291
-292
-289
-282
-273
-264
-259
-255
-250
-246
-241
-237
-233
-229
-226
-222
-219
-216
-213
-209
-204
-195
-187
-179
-172
-169
-166
-164
-161
-159
-157
-156
-154
-153
-153
-154
-155
-157
-159
-160
-162
-164
-166
-167
-169
-170
-171
-174
-177
-177
-171
-158
-121
-66
11
109
219
331
434
519
575
593
578
533
440
329
213
99
-3
-88
-153
-189
-210
-222
-230
-237
-243
-248
-253
-256
-260
-263
-266
-267
-266
-264
-259
-254
-249
-244
-238
-231
-224
-216
-207
-199
-191
-183
-176
-170
-164
-159
-155
-150
-143
-137
-129
-122
-114
-104
-92
-77
-64
-52
-39
-27
-14
-1
9
18
26
34
42
49
53
56
58
61
64
67
70
72
73
73
73
72
71
69
66
62
58
53
49
45
39
30
21
14
7
0
-7
-13
-14
-10
-4
0
2
5
7
10
14
18
22
25
28
30
31
32
33
35
37
39
41
42
43
45
47
49
52
54
56
59
61
65
68
73
78
87
96
103
106
107
109
110
111
112
113
113
112
111
110
110
109
110
110
110
110
111
112
114
115
117
118
119
121
122
124
126
129
132
136
140
144
148
155
163
167
169
170
171
172
174
176
178
180
182
185
188
192
195
198
201
204
208
212
214
212
208
203
198
194
190
186
182
177
174
171
170
170
171
172
175
179
183
189
195
208
239
302
377
461
547
634
722
803
849
865
845
786
694
593
495
401
310
225
151
113
103
95
91
88
87
87
88
91
94
98
103
108
111
114
117
119
122
125
128
132
135
137
139
141
143
145
147
150
154
157
161
166
171
176
180
182
184
184
183
181
179
176
172
167
161
152
133
118
109
104
99
96
92
88
83
79
75
71
66
61
53
45
37
30
22
5
-22
-51
-77
-100
-125
-150
-178
-200
-214
-228
-242
-250
-254
-257
-259
-261
-264
-267
-270
-272
-274
-276
-278
-280
-283
-286
-292
-308
-323
-335
-344
-352
-364
-376
-388
-400
-412
-421
-430
-448
-475
-502
-526
-547
-570
-592
-618
-648
-680
-709
-729
-738
-745
-751
-754
-748
-736
-716
-689
-670
-658
-645
-632
-616
-597
-582
-568
-554
-535
-515
-496
-481
-472
-467
-464
-460
-457
-452
-447
-442
-435
-426
-412
-389
-376
-360
-337
-314
-289
-274
-267
-261
-256
-250
-245
-239
-233
-227
-221
-212
-202
-190
-172
-148
-130
-116
-104
-92
-78
-68
-60
-54
-49
-47
-45
-43
-41
-40
-38
-35
-33
-40
-52
-59
-66
-72
-76
-78
-77
-74
-67
-55
-18
33
102
193
310
441
567
669
718
735
711
638
511
355
196
56
-43
-96
-122
-144
-173
-195
-207
-215
-218
-215
-209
-202
-194
-186
-178
-168
-159
-152
-146
-141
-136
-133
-130
-126
-123
-119
-115
-111
-107
-103
-98
-92
-86
-80
-75
-69
-62
-53
-41
-26
-7
10
28
41
49
58
67
78
90
101
110
119
130
140
148
154
160
166
171
177
181
187
193
203
217
226
232
236
239
242
244
244
241
233
224
211
192
176
162
151
139
126
119
114
110
107
105
103
102
101
101
101
102
104
105
106
108
110
111
112
112
113
113
115
117
117
115
109
104
101
99
97
94
92
91
90
89
88
88
88
90
96
99
101
103
104
105
107
109
110
111
111
111
111
111
111
110
109
106
102
97
92
87
82
79
76
74
73
73
76
79
84
89
94
100
112
126
142
153
162
169
174
175
173
170
165
159
151
141
130
113
98
88
81
77
73
71
69
67
67
69
71
73
75
77
79
83
87
93
99
104
107
108
108
107
106
104
99
93
85
77
69
61
54
48
43
40
37
34
33
32
34
36
39
40
41
42
45
50
61
83
116
166
238
334
452
584
716
834
906
930
903
819
659
466
274
109
-8
-56
-74
-75
-69
-63
-58
-61
-78
-89
-98
-105
-103
-93
-81
-75
-70
-66
-61
-56
-52
-50
-51
-55
-59
-62
-61
-59
-56
-51
-47
-44
-44
-44
-44
-42
-38
-33
-28
-24
-22
-20
-17
-12
-5
2
14
27
38
50
62
72
82
91
97
98
97
97
97
97
99
99
98
96
93
90
85
78
70
61
51
42
36
31
27
22
17
11
3
-4
-11
-16
-20
-25
-30
-35
-39
-38
-34
-28
-20
-14
-8
-3
0
2
5
9
12
13
13
11
8
6
3
0
-1
-3
-5
-6
-6
-6
-5
-3
-2
-1
-1
0
2
5
7
-1
0
0
1
1
1
1
1
2
2
3
3
3
3
3
4
4
3
2
1
0
0
1
1
1
0
0
0
1
1
1
0
0
-1
-2
-3
-4
-6
-8
-9
-9
-9
-10
-9
-9
-7
-5
-3
-1
0
1
2
3
3
4
4
5
6
7
10
12
15
18
22
25
29
31
33
35
36
38
40
43
46
49
53
58
63
67
69
68
64
58
52
46
42
37
31
25
20
15
11
8
4
1
-3
-10
-20
-26
-30
-33
-37
-39
-35
-23
7
49
107
182
272
378
497
623
744
843
881
872
793
644
457
263
97
-18
-73
-90
-99
-104
-108
-112
-115
-118
-120
-122
-124
-125
-126
-127
-127
-129
-130
-130
-131
-134
-136
-135
-126
-115
-108
-102
-96
-92
-88
-85
-83
-81
-79
-78
-76
-75
-73
-72
-70
-68
-65
-62
-57
-52
-44
-32
-20
-6
6
20
31
42
53
64
71
75
78
80
82
84
86
86
85
82
77
71
66
60
53
45
35
25
15
7
-1
-8
-14
-17
-19
-20
-21
-22
-23
-24
-25
-27
-28
-29
-30
-32
-36
-37
-36
-34
-33
-31
-31
-31
-32
-35
-37
-40
-42
-47
-50
-49
-44
-40
-36
-31
-21
-11
-4
0
6
11
15
16
15
11
6
2
-1
-4
-8
-12
-16
-19
-22
-23
-23
-23
-22
-21
-18
-16
-13
-11
-10
-9
-8
-6
-4
-1
0
3
6
8
9
10
9
9
8
7
6
4
2
0
0
-1
-1
-1
-4
-7
-10
-10
-6
0
6
11
15
20
25
29
32
35
38
40
43
46
49
52
54
56
58
60
62
64
66
68
70
71
70
67
62
57
52
49
45
41
37
33
30
28
26
25
25
25
26
28
30
34
38
43
62
106
169
253
359
479
595
694
764
790
787
742
635
474
288
115
-4
-42
-52
-59
-63
-68
-72
-76
-80
-83
-86
-89
-92
-95
-97
-99
-102
-103
-104
-103
-102
-100
-97
-94
-90
-86
-81
-71
-64
-59
-56
-55
-55
-54
-53
-52
-50
-48
-47
-46
-45
-43
-41
-38
-34
-25
-7
1
7
14
21
29
42
60
69
75
79
81
82
80
76
71
67
64
60
57
54
51
49
46
44
41
38
35
32
28
22
15
10
5
1
-2
-6
-9
-11
-12
-13
-13
-13
-14
-15
-16
-17
-18
-19
-20
-23
-23
-19
-17
-16
-16
-15
-15
-15
-15
-15
-14
-13
-13
-12
-12
-11
-10
-9
-8
-6
-6
-5
-4
-2
2
6
8
6
1
-3
-6
-8
-11
-13
-15
-17
-17
-16
-14
-12
-10
-7
-2
0
0
-3
-6
-9
-8
-3
-1
0
1
2
2
3
3
4
4
4
4
4
3
3
3
3
2
1
0
0
0
0
-1
-1
1
3
4
6
7
10
13
17
21
26
30
34
36
38
40
42
44
47
49
51
53
56
62
74
80
84
86
88
87
86
82
77
59
34
20
12
7
2
-1
-5
-10
-16
-16
-9
-3
0
2
6
9
12
17
36
66
115
188
290
414
549
685
807
897
933
901
798
636
441
247
88
-21
-69
-87
-95
-103
-117
-131
-139
-130
-115
-103
-96
-91
-97
-103
-107
-110
-112
-110
-107
-103
-99
-95
-92
-92
-93
-96
-99
-102
-91
-81
-75
-71
-68
-67
-66
-65
-64
-63
-61
-60
-57
-53
-47
-35
-18
-3
10
18
22
26
33
40
47
52
57
61
64
67
72
78
79
80
81
81
82
79
74
68
61
52
42
33
23
15
9
5
1
-1
-6
-11
-16
-20
-22
-24
-25
-26
-27
-27
-28
-28
-29
-30
-31
-31
-31
-30
-29
-28
-27
-27
-25
-25
-25
-26
-28
-30
-33
-35
-31
-25
-22
-20
-19
-17
-15
-13
-10
-8
-6
-4
-3
-1
0
1
3
5
8
10
12
13
12
10
8
6
4
2
0
-1
-3
-5
-7
-7
-8
-7
-7
-6
-4
-3
-1
0
1
3
5
8
11
14
18
22
26
27
26
23
19
13
5
0
-4
-8
-10
-5
3
7
10
12
14
16
18
21
23
25
27
28
30
32
33
35
36
39
43
47
50
53
56
58
61
64
68
70
72
74
77
81
86
86
76
61
43
34
30
27
24
21
18
15
11
5
-1
-7
-12
-16
-20
-23
-21
-16
-1
19
46
80
129
199
296
415
549
683
803
889
925
899
803
645
453
262
103
-4
-62
-86
-102
-119
-135
-145
-151
-151
-143
-131
-118
-111
-107
-104
-102
-101
-100
-99
-97
-96
-96
-96
-96
-97
-98
-99
-100
-101
-102
-103
-104
-102
-99
-95
-89
-80
-69
-54
-40
-34
-30
-28
-24
-20
-16
-11
-6
0
3
8
26
50
63
71
76
81
84
87
91
96
95
87
82
79
75
71
67
63
57
46
29
16
7
-2
-11
-20
-27
-29
-31
-32
-33
-33
-34
-34
-34
-34
-34
-35
-35
-35
-35
-34
-34
-35
-36
-37
-37
-37
-37
-38
-39
-41
-42
-44
-45
-47
-50
-52
-55
-56
-55
-52
-49
-46
-43
-40
-36
-31
-26
-20
-15
-11
-8
-6
-3
0
0
1
0
0
-1
-3
-5
-8
-10
-12
-13
-15
-16
-17
-18
-18
-18
-17
-16
-15
-14
-12
-11
-9
-8
-6
-5
-3
0
2
5
7
7
7
6
6
5
4
4
2
1
0
-1
-1
-1
0
0
0
0
1
3
5
8
10
18
30
37
43
43
38
34
31
29
30
34
40
46
56
68
84
102
111
117
121
121
116
108
95
78
66
59
52
44
31
18
14
11
9
8
8
10
15
20
27
38
47
56
65
77
106
158
236
339
462
596
724
826
874
874
825
715
567
394
216
62
-41
-76
-75
-54
-42
-51
-76
-114
-137
-144
-135
-121
-102
-86
-78
-72
-67
-63
-61
-60
-59
-58
-57
-56
-56
-55
-55
-55
-55
-54
-53
-52
-52
-52
-51
-51
-50
-50
-48
-47
-45
-41
-31
-21
-11
-1
5
11
16
23
33
39
43
47
51
55
59
62
66
69
73
77
80
81
80
79
76
73
62
35
9
1
-4
-11
-16
-24
-34
-43
-48
-51
-53
-55
-56
-58
-60
-63
-66
-68
-71
-75
-80
-89
-104
-112
-116
-119
-122
-125
-126
-126
-123
-120
-115
-110
-102
-101
-106
-109
-111
-113
-115
-116
-116
-116
-116
-116
-116
-115
-113
-110
-124
-148
-175
-188
-195
-200
-203
-206
-209
-212
-216
-218
-221
-224
-227
-231
-235
-239
-242
-245
-248
-252
-258
-265
-273
-281
-289
-296
-303
-309
-314
-318
-321
-324
-326
-328
-328
-328
-325
-321
-317
-312
-306
-298
-289
-282
-275
-261
-238
-217
-202
-188
-170
-148
-127
-105
-83
-63
-49
-39
-22
1
19
26
31
30
20
13
7
2
0
2
8
18
49
87
125
142
152
159
158
145
127
103
90
84
79
74
70
65
57
28
-7
-31
-59
-78
-90
-89
-63
-8
65
149
232
306
372
431
464
463
422
329
207
75
-46
-149
-233
-300
-345
-365
-374
-379
-382
-386
-391
-397
-403
-413
-426
-427
-415
-404
-393
-383
-374
-369
-366
-364
-361
-357
-353
-350
-346
-340
-329
-306
-290
-281
-272
-263
-236
-202
-166
-142
-116
-88
-39
22
84
134
172
208
230
267
301
322
344
365
396
436
481
520
556
581
606
621
623
625
626
627
622
613
602
589
576
566
559
552
543
534
528
523
519
516
512
508
504
499
495
489
483
477
469
463
457
451
444
434
418
403
389
374
358
341
325
319
316
314
313
311
309
305
301
296
290
280
262
245
228
211
195
185
178
171
164
156
148
141
132
123
113
104
97
89
82
73
63
49
35
25
17
9
3
0
-3
-5
-7
-8
-10
-12
-14
-16
-18
-19
-21
-23
-25
-27
-30
-32
-34
-36
-38
-39
-41
-41
-42
-44
-45
-46
-47
-48
-49
-51
-53
-55
-56
-57
-58
-59
-61
-63
-64
-66
-68
-71
-75
-80
-83
-84
-82
-79
-75
-70
-66
-61
-57
-51
-46
-40
-34
-27
-20
-12
-1
7
7
1
-7
-19
-35
-47
-64
-85
-96
-101
-107
-110
-113
-115
-116
-116
-116
-115
-113
-110
-106
-99
-91
-61
-7
62
144
237
341
450
555
640
679
693
671
604
481
320
147
-12
-132
-205
-231
-240
-249
-248
-234
-210
-184
-173
-168
-164
-161
-159
-156
-153
-151
-149
-147
-145
-144
-143
-144
-144
-144
-144
-142
-140
-138
-136
-134
-133
-131
-129
-127
-124
-121
-118
-115
-111
-107
-101
-95
-88
-82
-77
-73
-68
-61
-47
-19
0
9
18
28
38
48
54
61
67
73
77
78
77
73
67
61
55
49
42
33
26
20
14
10
5
1
-2
-6
-10
-14
-17
-20
-22
-26
-31
-37
-42
-44
-44
-42
-39
-35
-31
-24
-18
-16
-18
-22
-23
-25
-26
-27
-29
-30
-33
-34
-35
-34
-33
-31
-29
-27
-26
-25
-24
-24
-24
-25
-26
-26
-27
-27
-26
-25
-24
-22
-21
-20
-21
-22
-24
-26
-29
-30
-30
-29
-29
-29
-28
-27
-25
-23
-22
-21
-21
-21
-22
-22
-22
-22
-22
-21
-19
-18
-16
-15
-15
-15
-16
-17
-18
-20
-22
-25
-28
-30
-32
-33
-35
-37
-39
-41
-43
-44
-45
-47
-49
-51
-53
-54
-55
-54
-53
-52
-51
-49
-47
-43
-39
-35
-30
-27
-23
-17
-11
-5
0
5
9
12
15
19
22
24
23
18
10
1
-6
-12
-18
-25
-31
-37
-42
-45
-48
-49
-50
-49
-48
-45
-41
-35
-28
-19
12
69
151
257
382
522
663
789
872
901
880
814
666
477
275
93
-39
-81
-91
-98
-104
-109
-112
-113
-114
-114
-113
-110
-108
-103
-97
-92
-89
-87
-85
-83
-81
-79
-77
-76
-76
-75
-74
-72
-70
-68
-67
-66
-65
-64
-62
-60
-58
-56
-54
-51
-45
-38
-30
-23
-15
-7
0
8
16
24
34
43
51
56
61
66
70
74
77
79
82
84
86
87
86
84
80
76
72
67
62
56
49
41
34
23
11
1
-4
-10
-14
-16
-18
-19
-21
-22
-24
-25
-26
-27
-27
-28
-29
-30
-30
-30
-30
-29
-28
-27
-27
-26
-26
-25
-25
-24
-24
-23
-23
-22
-21
-21
-21
-20
-20
-20
-20
-20
-19
-18
-18
-17
-16
-15
-13
-11
-9
-7
-6
-4
-3
-1
2
5
9
12
14
16
17
17
17
16
13
9
4
0
-2
-5
-9
-14
-19
-23
-24
-24
-22
-20
-17
-15
-14
-11
-9
-6
-5
-3
-2
-2
-2
-3
-4
-7
-9
-11
-13
-17
-20
-21
-19
-13
-5
8
31
39
43
47
50
53
55
57
59
61
62
63
64
64
64
65
65
67
70
72
73
70
62
54
48
43
37
32
27
23
20
16
13
10
6
0
-4
-4
1
10
25
46
76
113
164
233
322
428
547
666
774
851
861
835
721
554
363
183
41
-50
-69
-75
-78
-80
-83
-85
-86
-87
-88
-89
-91
-94
-97
-101
-102
-99
-92
-86
-83
-80
-78
-76
-74
-71
-69
-67
-65
-63
-61
-60
-58
-57
-55
-53
-51
-48
-45
-42
-39
-35
-30
-24
-20
-16
-14
-11
-7
-1
9
29
44
54
62
66
69
71
73
75
77
79
80
81
80
77
73
67
61
52
36
17
3
-7
-15
-19
-22
-24
-26
-28
-30
-32
-33
-36
-38
-42
-46
-50
-53
-55
-57
-58
-60
-62
-64
-66
-68
-69
-71
-72
-72
-72
-72
-71
-70
-69
-67
-66
-64
-63
-61
-59
-57
-56
-55
-54
-54
-53
-51
-50
-49
-48
-48
-47
-45
-44
-43
-43
-43
-43
-44
-44
-44
-44
-45
-45
-45
-45
-43
-42
-41
-39
-38
-37
-36
-34
-33
-31
-30
-29
-27
-25
-22
-19
-16
-14
-13
-11
-10
-9
-7
-6
-5
-4
0
3
3
2
0
-1
-4
-6
-6
-4
-1
0
1
3
4
7
9
12
15
18
22
26
29
32
34
37
40
43
46
48
50
50
50
49
48
45
41
37
33
26
13
6
1
-3
-6
-8
-8
-7
-4
-1
1
4
7
11
14
16
21
38
75
133
215
317
434
553
665
760
827
844
832
754
616
445
266
114
12
-34
-53
-63
-73
-83
-90
-94
-96
-97
-98
-99
-98
-98
-97
-94
-91
-87
-82
-78
-74
-71
-69
-67
-65
-61
-58
-54
-52
-50
-48
-47
-45
-43
-40
-34
-23
-19
-17
-15
-14
-13
-9
-5
1
8
18
26
34
43
54
69
80
89
97
103
108
117
127
131
133
136
137
137
130
120
113
107
102
96
92
88
82
70
49
33
25
18
14
10
2
-12
-23
-30
-34
-37
-39
-42
-45
-50
-52
-49
-43
-33
-20
-15
-11
-9
-8
-7
-7
-7
-7
-7
-7
-7
-7
-7
-9
-13
-17
-25
-39
-48
-55
-58
-55
-49
-43
-36
-30
-24
-17
-9
-4
-1
0
1
2
2
2
1
0
-1
-3
-4
-4
-5
-6
-7
-8
-9
-10
-11
-12
-12
-12
-12
-11
-10
-9
-8
-7
-7
-6
-6
-6
-6
-6
-5
-4
-2
-1
-3
-8
-11
-14
-17
-20
-20
-20
-18
-16
-15
-14
-12
-11
-8
-6
-3
-1
1
4
10
21
28
32
34
35
37
39
41
44
46
48
50
54
63
75
79
81
83
84
83
81
76
70
55
43
36
31
26
21
17
14
12
9
6
3
0
-4
-9
-13
-14
-12
-8
2
30
74
137
221
325
442
565
681
777
843
867
837
749
606
427
239
78
-29
-58
-67
-72
-77
-82
-87
-93
-98
-103
-110
-118
-123
-125
-115
-106
-100
-94
-89
-85
-82
-79
-75
-71
-66
-62
-59
-58
-57
-55
-54
-52
-51
-50
-48
-47
-45
-44
-43
-41
-40
-37
-30
-22
-14
-1
16
37
56
69
76
82
86
89
96
107
114
118
121
122
123
122
119
115
111
105
97
91
86
82
78
75
72
69
65
57
41
28
21
14
9
4
-1
-9
-20
-24
-27
-30
-32
-34
-35
-35
-36
-36
-37
-36
-36
-35
-34
-33
-32
-31
-30
-29
-28
-27
-26
-24
-24
-24
-27
-32
-36
-39
-42
-45
-48
-50
-50
-48
-44
-39
-35
-33
-30
-27
-23
-20
-16
-14
-12
-11
-11
-11
-11
-11
-13
-15
-17
-18
-19
-20
-21
-22
-24
-26
-27
-29
-30
-31
-32
-32
-32
-31
-29
-27
-24
-22
-19
-17
-15
-13
-10
-7
-5
-3
-2
-2
-2
-3
-5
-7
-10
-13
-15
-17
-19
-21
-24
-26
-27
-28
-28
-26
-24
-21
-18
-16
-13
-10
-6
-2
1
3
6
8
11
15
20
25
29
32
36
42
42
34
26
18
10
4
-5
-22
-35
-44
-50
-52
-53
-54
-55
-56
-56
-57
-57
-57
-56
-55
-53
-49
-44
-25
11
69
153
258
379
509
638
753
837
869
837
737
573
369
169
14
-59
-86
-95
-106
-127
-151
-166
-166
-154
-144
-136
-130
-130
-130
-131
-132
-132
-132
-132
-132
-131
-129
-127
-124
-122
-120
-118
-116
-113
-111
-110
-108
-106
-104
-101
-97
-92
-87
-76
-55
-40
-29
-20
-10
2
9
13
16
19
23
26
29
33
37
42
48
54
60
73
87
93
98
101
103
104
103
100
96
91
83
71
61
51
40
31
22
16
8
1
-11
-24
-29
-33
-35
-37
-38
-38
-36
-34
-33
-32
-31
-29
-27
-26
-25
-24
-24
-25
-25
-25
-25
-26
-27
-28
-29
-29
-29
-29
-29
-29
-29
-29
-28
-26
-23
-20
-15
-5
3
10
15
18
18
12
5
0
-5
-10
-14
-13
-8
-1
4
7
10
13
16
19
21
23
25
26
28
30
31
32
32
31
31
30
30
31
31
31
31
30
30
30
29
29
28
28
28
29
29
29
30
31
32
33
35
37
39
41
43
46
49
54
58
63
67
71
74
78
81
84
86
90
94
97
98
98
95
91
86
80
73
61
50
42
36
32
28
24
20
16
13
10
8
4
0
-3
-6
-6
-5
-2
2
18
52
103
173
262
367
479
583
674
748
781
775
709
569
386
199
45
-50
-71
-74
-77
-80
-82
-84
-86
-88
-89
-89
-90
-90
-88
-87
-85
-83
-81
-78
-76
-74
-72
-70
-68
-66
-63
-61
-58
-55
-51
-48
-44
-40
-37
-33
-27
-21
-15
-9
-4
0
3
6
9
13
16
19
21
25
29
35
44
52
60
67
73
79
85
92
97
102
106
110
111
110
106
101
95
86
72
62
54
44
32
19
6
-5
-15
-23
-30
-35
-40
-42
-44
-46
-47
-49
-50
-51
-52
-52
-53
-53
-52
-52
-51
-51
-50
-50
-50
-49
-49
-49
-49
-48
-47
-46
-45
-44
-43
-43
-42
-41
-41
-40
-39
-39
-38
-36
-35
-33
-32
-30
-28
-26
-24
-20
-16
-12
-8
-6
-6
-8
-11
-15
-19
-23
-26
-30
-34
-39
-42
-44
-43
-40
-37
-33
-31
-28
-24
-19
-15
-12
-12
-13
-15
-17
-19
-22
-29
-28
-19
-15
-12
-10
-8
-7
-6
-4
-1
1
4
7
11
14
18
22
30
37
42
44
46
47
48
50
52
53
50
42
32
23
13
4
0
0
-2
-3
-4
-5
-6
-7
-7
-7
-6
-4
-1
3
9
21
45
86
143
212
297
395
501
606
694
738
738
695
593
456
301
151
31
-47
-69
-74
-77
-81
-87
-93
-100
-106
-115
-122
-126
-123
-117
-111
-108
-105
-103
-101
-98
-95
-92
-88
-84
-80
-76
-72
-69
-66
-63
-60
-56
-53
-49
-45
-42
-40
-38
-35
-32
-28
-19
0
16
25
35
44
49
53
56
59
63
66
69
73
76
79
82
85
88
91
94
96
97
98
97
96
93
89
85
79
70
53
38
27
19
12
7
3
0
-3
-5
-7
-8
-9
-10
-10
-10
-10
-8
-6
-4
-2
-1
0
1
4
6
7
8
7
6
4
2
0
-2
-5
-9
-12
-16
-19
-22
-24
-28
-30
-32
-31
-28
-23
-16
-8
4
13
17
20
22
24
26
27
28
29
29
30
31
32
32
32
31
31
30
31
31
32
32
32
33
34
35
36
35
32
28
24
22
19
17
14
11
9
7
6
6
6
6
5
5
6
6
7
7
6
5
5
8
13
22
37
47
52
56
60
64
68
71
76
75
64
57
52
47
42
35
29
23
16
8
0
-4
-8
-11
-15
-20
-23
-21
-15
-11
-7
-3
0
3
6
11
22
40
68
110
173
257
357
466
575
673
749
773
763
692
567
413
259
126
29
-28
-61
-78
-90
-100
-111
-124
-134
-136
-138
-140
-139
-131
-124
-118
-112
-106
-101
-96
-92
-87
-83
-80
-77
-75
-73
-71
-69
-67
-65
-65
-66
-67
-69
-70
-73
-77
-65
-53
-43
-36
-31
-23
-9
2
8
13
18
23
28
38
54
61
65
68
70
71
71
71
71
71
71
71
70
69
68
66
65
63
62
60
58
55
53
50
46
42
36
24
3
-16
-36
-44
-49
-52
-55
-57
-59
-59
-59
-58
-57
-54
-52
-49
-45
-40
-32
-27
-25
-25
-24
-22
-23
-31
-42
-56
-65
-71
-78
-84
-90
-96
-99
-96
-91
-86
-82
-76
-69
-61
-54
-47
-42
-37
-34
-31
-26
-18
-13
-9
-8
-11
-14
-16
-20
-25
-30
-33
-36
-39
-41
-42
-43
-41
-38
-34
-31
-28
-26
-22
-18
-15
-12
-10
-10
-9
-8
-7
-5
-5
-5
-5
-5
-5
-5
-5
-5
-6
-5
-5
-4
-3
-3
-3
-2
0
1
3
6
9
17
34
44
51
55
56
54
50
45
36
21
10
1
-6
-15
-24
-27
-29
-31
-32
-33
-33
-31
-29
-26
-23
-19
-12
-6
0
17
50
102
175
270
385
512
637
742
803
808
772
662
502
314
130
-19
-116
-136
-133
-96
-77
-79
-101
-135
-144
-145
-145
-146
-146
-145
-145
-145
-145
-144
-142
-140
-136
-129
-122
-118
-116
-114
-112
-108
-103
-98
-94
-91
-88
-85
-82
-80
-78
-77
-75
-71
-67
-58
-49
-36
-21
-12
-7
-2
1
5
10
17
27
42
62
77
86
91
91
92
92
93
93
89
83
78
74
69
65
61
56
48
38
30
24
19
15
10
5
-3
-19
-28
-32
-36
-38
-39
-40
-38
-36
-34
-32
-31
-31
-30
-28
-27
-25
-24
-23
-23
-22
-22
-22
-24
-25
-27
-29
-30
-30
-31
-32
-33
-36
-37
-38
-34
-28
-22
-18
-14
-10
-6
-3
-3
-4
-5
-6
-8
-9
-13
-12
-2
3
8
12
15
17
18
19
19
20
21
21
22
22
21
18
16
13
10
7
4
0
-2
-5
-6
-6
-4
-2
0
2
4
6
9
11
13
14
15
16
17
18
18
19
20
21
22
24
27
31
36
43
57
81
96
106
110
107
99
89
77
66
51
32
18
10
3
-2
-10
-18
-24
-28
-32
-34
-34
-30
-24
-18
-8
0
9
22
39
67
116
191
295
423
565
703
818
882
887
844
726
568
387
207
52
-55
-97
-111
-103
-94
-87
-87
-94
-97
-100
-102
-104
-105
-105
-104
-102
-100
-96
-93
-89
-84
-80
-76
-73
-70
-67
-66
-64
-62
-60
-59
-57
-56
-54
-53
-50
-48
-45
-43
-41
-38
-34
-24
-2
15
28
32
35
37
40
44
51
58
68
80
90
96
101
104
106
106
105
103
101
99
98
95
92
88
83
75
65
49
37
26
17
12
9
6
4
2
0
-4
-10
-15
-20
-25
-30
-33
-34
-32
-29
-26
-24
-23
-22
-21
-21
-20
-19
-18
-17
-17
-17
-18
-18
-19
-20
-21
-22
-23
-23
-23
-21
-19
-17
-15
-14
-13
-11
-9
-7
-5
-3
0
5
10
15
18
19
19
20
20
21
21
20
19
18
17
16
16
15
14
13
14
14
16
17
17
18
18
19
19
20
21
21
22
24
26
28
29
31
34
37
42
48
56
68
70
71
73
74
75
72
65
57
53
50
47
44
40
37
35
32
30
28
25
23
20
18
15
9
4
-1
-5
-9
-13
-18
-22
-21
-14
0
37
92
167
258
364
478
593
697
762
785
759
680
525
335
147
-2
-83
-111
-106
-102
-101
-101
-100
-99
-98
-96
-93
-91
-87
-83
-79
-77
-75
-73
-71
-69
-67
-66
-65
-64
-63
-63
-63
-64
-64
-65
-66
-67
-68
-70
-69
-64
-57
-52
-49
-45
-41
-36
-32
-27
-20
-12
1
14
26
35
47
61
71
79
85
90
93
95
97
99
101
104
106
106
100
93
86
80
74
67
61
56
50
44
38
31
25
17
1
-20
-28
-30
-33
-35
-36
-37
-38
-39
-40
-40
-41
-41
-41
-41
-41
-41
-41
-40
-40
-41
-41
-41
-41
-41
-42
-42
-42
-42
-42
-43
-44
-46
-48
-48
-44
-38
-34
-29
-25
-20
-14
-6
3
9
12
13
15
16
16
15
12
8
4
1
-1
-4
-7
-9
-11
-12
-11
-10
-8
-6
-4
-2
0
3
6
8
10
11
13
14
16
17
18
19
19
20
22
24
26
29
31
33
36
38
41
43
45
49
54
57
56
54
49
44
37
26
18
9
0
-9
-13
-16
-19
-21
-23
-23
-24
-23
-23
-22
-20
-17
-12
3
30
73
135
217
318
433
553
666
757
805
807
765
658
508
337
170
34
-50
-77
-83
-88
-92
-95
-97
-98
-98
-99
-99
-99
-100
-100
-101
-103
-106
-107
-105
-102
-100
-97
-96
-95
-94
-93
-92
-91
-90
-90
-89
-89
-89
-88
-87
-84
-81
-77
-72
-64
-57
-51
-41
-22
-8
0
4
9
13
16
20
26
34
42
48
53
60
68
82
95
98
101
103
104
103
100
96
90
82
69
58
48
40
32
25
19
13
9
6
5
3
1
-1
2
8
12
14
12
7
5
3
3
2
2
0
0
-2
-4
-4
-5
-6
-8
-10
-13
-22
-30
-31
-33
-28
-25
-23
-21
-19
-16
-13
-10
-6
-3
0
3
4
5
5
6
7
8
9
10
10
10
9
9
8
7
7
6
4
3
2
2
3
4
6
7
7
8
8
10
11
12
13
13
12
12
13
13
14
14
14
14
15
15
17
18
20
21
23
24
26
28
30
32
34
36
39
42
44
48
51
55
60
66
75
80
78
73
69
64
58
52
42
26
11
0
-6
-12
-16
-20
-24
-29
-34
-33
-26
-19
-12
-7
-2
10
32
70
126
202
300
418
548
672
770
812
811
761
660
530
389
248
120
18
-51
-93
-110
-115
-118
-120
-121
-124
-126
-128
-131
-133
-137
-142
-146
-146
-142
-137
-132
-127
-122
-118
-114
-108
-101
-95
-91
-88
-85
-81
-77
-71
-64
-65
-73
-79
-84
-88
-89
-88
-84
-80
-72
-58
-46
-37
-28
-18
-3
6
11
15
20
24
30
41
57
66
72
75
79
81
84
87
91
93
89
81
59
37
21
7
-3
-13
-27
-41
-47
-49
-51
-53
-54
-54
-55
-55
-55
-55
-54
-53
-52
-51
-50
-51
-54
-58
-60
-62
-65
-67
-69
-70
-70
-69
-67
-66
-64
-63
-61
-59
-56
-55
-53
-51
-50
-48
-46
-43
-38
-32
-26
-21
-15
-9
-4
-1
-1
-3
-6
-9
-12
-15
-20
-25
-26
-23
-18
-13
-9
-4
0
6
11
18
24
30
36
41
47
50
47
41
36
32
26
20
15
10
6
2
0
-2
-1
1
6
12
18
27
35
41
46
51
56
60
65
70
74
78
82
86
89
91
93
95
97
99
100
101
101
98
94
88
82
68
48
38
32
27
25
23
22
20
18
16
16
16
17
20
24
31
55
96
157
240
343
462
588
712
825
910
946
915
807
636
430
228
65
-39
-72
-80
-86
-91
-95
-98
-100
-101
-100
-100
-98
-97
-95
-92
-89
-87
-84
-82
-80
-77
-73
-69
-66
-65
-66
-67
-68
-69
-71
-74
-77
-77
-73
-67
-61
-55
-49
-45
-42
-34
-20
-5
9
19
23
26
30
35
41
53
72
83
88
92
95
97
99
99
101
102
104
106
108
111
115
120
127
128
118
104
86
72
62
54
47
41
32
21
13
7
3
0
-1
-4
-6
-7
-8
-9
-11
-14
-17
-19
-19
-17
-15
-14
-12
-9
-4
-4
-10
-15
-19
-23
-27
-29
-28
-25
-23
-21
-20
-18
-16
-14
-11
-9
-8
-7
-5
-4
-2
0
0
1
1
2
3
4
6
7
7
8
9
10
11
12
12
12
12
12
12
11
10
8
7
6
6
6
5
4
3
3
2
2
1
0
-1
-3
-4
-4
-5
-6
-7
-8
-8
-7
-6
-6
-5
-4
-3
-1
1
4
6
9
12
17
27
36
43
48
51
54
57
60
62
64
63
61
56
50
44
37
25
15
6
0
-4
-8
-12
-16
-19
-23
-27
-34
-45
-51
-55
-59
-61
-61
-57
-47
-23
17
82
168
272
390
516
641
750
813
817
770
644
470
277
104
-22
-94
-119
-124
-127
-129
-131
-133
-134
-136
-137
-138
-139
-140
-140
-139
-139
-139
-138
-137
-135
-133
-132
-130
-128
-125
-122
-113
-94
-88
-85
-83
-82
-80
-78
-76
-74
-71
-69
-67
-64
-61
-58
-54
-47
-34
-23
-13
-2
11
26
32
36
40
44
47
49
51
53
55
56
56
56
56
56
55
54
54
53
52
51
49
48
45
42
35
27
17
5
-8
-20
-36
-53
-63
-68
-72
-72
-67
-60
-55
-48
-43
-40
-42
-46
-51
-62
-71
-73
-75
-73
-62
-57
-55
-53
-53
-52
-52
-51
-51
-49
-48
-46
-44
-42
-40
-38
-36
-34
-32
-30
-27
-24
-21
-14
-6
-1
0
1
2
4
5
6
8
9
10
10
11
11
11
11
12
12
12
12
13
15
17
19
19
16
13
10
8
6
4
3
1
0
0
0
2
5
8
12
15
17
20
22
24
27
30
33
35
37
40
44
49
60
77
85
91
90
81
73
67
60
53
45
30
10
-1
-8
-14
-18
-21
-24
-27
-29
-31
-31
-29
-24
-18
-6
13
48
97
162
247
348
460
571
671
746
764
753
675
541
375
205
56
-51
-93
-104
-111
-117
-121
-124
-125
-125
-125
-123
-121
-119
-115
-111
-107
-103
-99
-94
-90
-88
-85
-84
-82
-81
-80
-80
-79
-79
-78
-77
-76
-75
-74
-72
-70
-68
-66
-63
-61
-57
-51
-44
-39
-34
-29
-19
-2
11
18
25
33
41
57
74
80
84
87
89
90
90
88
83
78
73
68
62
56
50
45
41
37
33
28
23
18
14
11
6
-2
-17
-24
-26
-28
-29
-30
-31
-32
-34
-36
-38
-40
-42
-43
-45
-46
-47
-49
-53
-57
-60
-60
-59
-55
-52
-49
-47
-45
-42
-39
-37
-35
-33
-31
-30
-27
-25
-23
-22
-21
-19
-16
-13
-10
-7
-4
-1
1
5
10
12
12
9
6
2
-1
-6
-10
-6
0
6
13
18
22
27
32
31
21
3
-10
-14
-17
-18
-20
-20
-19
-17
-14
-9
-3
7
19
27
33
38
42
44
46
48
52
58
49
41
35
32
35
42
47
50
53
55
56
56
54
50
45
41
35
29
22
17
14
12
9
5
-1
-14
-25
-33
-39
-39
-37
-32
-19
8
51
109
182
268
367
478
597
715
814
861
857
793
657
482
301
149
41
-22
-58
-79
-95
-108
-116
-120
-123
-126
-128
-129
-128
-124
-119
-114
-111
-108
-105
-102
-99
-96
-94
-92
-91
-91
-90
-90
-89
-89
-88
-88
-86
-84
-83
-83
-85
-87
-90
-81
-67
-51
-35
-19
-6
3
14
20
24
27
30
33
36
39
42
47
53
63
70
76
80
82
85
88
89
90
89
87
84
79
74
69
59
50
42
30
12
-6
-20
-25
-26
-28
-30
-31
-32
-32
-33
-33
-33
-33
-34
-34
-34
-35
-35
-35
-35
-35
-35
-35
-36
-36
-36
-36
-35
-35
-34
-34
-34
-34
-33
-33
-33
-32
-31
-30
-28
-27
-25
-24
-23
-21
-17
-13
-9
-6
-2
0
3
6
8
10
11
11
12
12
13
13
14
15
17
21
21
15
11
8
5
3
3
3
5
6
8
10
12
13
13
11
8
5
1
0
3
11
18
23
29
34
38
43
47
50
53
56
58
60
62
64
65
67
70
72
74
74
71
66
60
49
29
19
13
9
6
4
2
0
0
-1
-2
-3
-5
-7
-11
-10
0
25
59
105
169
258
371
496
623
741
837
883
881
821
687
509
312
130
-9
-94
-111
-116
-110
-102
-96
-105
-120
-131
-136
-140
-128
-119
-113
-109
-107
-105
-104
-102
-101
-99
-97
-96
-94
-91
-86
-86
-90
-94
-99
-98
-87
-78
-71
-63
-54
-46
-39
-34
-28
-23
-19
-17
-15
-13
-11
-7
-1
6
17
33
53
65
73
78
84
89
92
96
99
101
102
102
102
101
99
96
92
85
67
52
45
40
35
32
30
27
21
13
5
-1
-8
-17
-26
-34
-43
-50
-55
-59
-61
-60
-57
-55
-52
-48
-46
-46
-46
-47
-48
-48
-49
-46
-42
-38
-36
-34
-32
-30
-28
-27
-26
-25
-25
-26
-26
-26
-27
-29
-31
-33
-35
-37
-41
-40
-29
-22
-16
-11
-7
-3
0
1
3
6
8
9
9
7
4
0
-6
-17
-23
-28
-30
-27
-20
-15
-10
-5
-2
0
1
4
8
7
2
0
-3
-6
-8
-10
-9
-8
-5
-2
0
3
6
10
15
21
29
43
55
58
61
62
62
59
53
44
26
11
3
-2
-7
-10
-13
-20
-35
-48
-56
-60
-62
-62
-63
-63
-64
-58
-40
-15
20
71
141
234
347
469
587
691
767
800
774
680
527
337
145
-7
-96
-112
-116
-119
-120
-120
-121
-123
-124
-115
-110
-108
-107
-105
-104
-104
-104
-103
-102
-100
-98
-96
-95
-94
-94
-93
-92
-90
-88
-86
-82
-78
-74
-71
-68
-65
-62
-59
-56
-52
-48
-43
-38
-32
-25
-16
-9
-5
1
15
31
49
61
67
71
75
79
82
85
88
91
93
96
97
97
96
93
89
84
75
57
44
36
30
25
21
14
0
-10
-13
-16
-17
-18
-18
-18
-20
-22
-25
-27
-29
-31
-33
-35
-38
-41
-43
-45
-48
-52
-57
-60
-62
-60
-56
-51
-46
-41
-37
-32
-27
-22
-18
-15
-14
-13
-11
-10
-9
-9
-9
-9
-8
-7
-6
-6
-5
-4
-2
0
2
5
7
9
11
15
18
21
21
20
18
16
14
13
12
10
8
7
7
8
9
11
12
13
15
16
18
20
21
23
24
26
27
29
30
30
31
33
35
42
60
72
81
84
79
68
58
47
37
28
13
-3
-10
-14
-17
-20
-22
-23
-23
-23
-22
-21
-20
-17
-14
-9
0
17
52
104
177
272
384
509
634
743
811
818
787
674
511
330
163
38
-35
-62
-68
-72
-76
-80
-82
-84
-85
-86
-86
-85
-84
-84
-83
-82
-82
-82
-82
-81
-81
-80
-80
-80
-79
-79
-78
-77
-75
-73
-71
-69
-66
-62
-57
-47
-41
-38
-35
-33
-31
-27
-21
-13
-5
2
11
20
27
35
42
50
58
65
71
74
78
85
100
115
125
124
112
102
94
87
83
79
76
72
69
66
61
57
52
43
25
15
10
7
4
2
0
-2
-5
-7
-10
-13
-17
-24
-29
-29
-24
-19
-16
-13
-10
-8
-6
-5
-4
-3
-2
-2
-3
-4
-5
-6
-7
-7
-8
-9
-11
-14
-15
-13
-9
-2
6
17
19
20
21
22
23
24
25
27
29
30
32
33
33
34
36
37
38
36
32
27
22
19
15
12
8
4
2
1
3
5
7
9
12
14
17
21
24
27
29
33
37
43
46
43
37
33
29
26
24
24
27
31
37
48
67
78
85
90
93
90
85
78
72
64
57
52
47
40
31
21
13
8
3
0
-1
-3
-5
-9
-11
-8
-1
18
45
90
155
243
353
480
614
742
846
907
910
866
741
561
363
183
53
-17
-43
-54
-71
-87
-102
-102
-88
-77
-66
-61
-62
-65
-67
-69
-71
-68
-64
-59
-53
-54
-64
-71
-77
-82
-86
-87
-85
-81
-76
-71
-66
-62
-56
-50
-43
-36
-30
-25
-20
-16
-12
-8
-6
-4
-3
-1
1
4
12
30
48
62
74
81
86
90
93
95
98
101
104
106
110
113
115
115
113
108
102
91
72
60
52
43
32
23
16
10
5
1
-1
-3
-8
-16
-22
-26
-29
-31
-33
-33
-32
-30
-26
-23
-19
-13
-9
-14
-23
-29
-34
-39
-42
-43
-44
-44
-45
-46
-47
-48
-48
-43
-36
-26
-14
-10
-8
-7
-6
-4
-3
-2
-1
-1
-1
-1
0
0
0
0
0
0
0
0
1
2
4
5
6
7
8
9
10
11
13
14
16
18
20
21
22
22
20
18
16
13
10
7
4
0
-3
-5
-4
-2
0
4
11
25
35
40
44
49
54
59
64
68
74
78
82
86
93
100
95
80
55
41
30
21
10
1
-5
-9
-8
-5
-2
1
0
-6
-11
-15
-19
-20
-18
-12
-1
28
79
148
234
336
451
575
698
804
867
874
844
735
570
372
173
10
-92
-117
-113
-90
-78
-85
-106
-142
-153
-157
-159
-159
-155
-146
-140
-134
-129
-125
-120
-114
-105
-100
-96
-94
-92
-91
-90
-91
-93
-94
-96
-98
-102
-100
-90
-82
-75
-68
-60
-52
-46
-42
-37
-33
-30
-28
-26
-24
-22
-16
-4
11
29
51
70
82
90
95
98
100
102
103
104
104
101
98
93
86
71
56
41
28
15
9
7
5
4
2
1
0
-2
-4
-6
-8
-11
-15
-23
-41
-50
-55
-59
-62
-63
-63
-61
-57
-52
-47
-43
-38
-33
-28
-25
-23
-22
-21
-19
-18
-17
-16
-15
-15
-17
-21
-25
-29
-32
-35
-39
-43
-46
-47
-45
-42
-38
-34
-29
-22
-11
-1
6
12
19
23
23
20
15
11
5
0
-5
-11
-17
-26
-25
-14
-7
-1
4
8
10
12
13
14
15
15
15
15
15
15
15
17
19
21
22
23
25
27
30
34
37
40
44
49
54
57
57
56
52
48
42
34
19
9
0
-11
-22
-35
-45
-48
-50
-53
-54
-50
-43
-35
-25
-10
7
31
73
131
209
311
432
557
671
757
783
772
693
545
355
164
7
-95
-130
-140
-147
-149
-150
-147
-143
-136
-123
-107
-103
-101
-99
-98
-97
-98
-98
-98
-98
-98
-98
-98
-97
-97
-96
-95
-95
-94
-93
-91
-89
-87
-86
-83
-78
-72
-65
-58
-51
-44
-37
-30
-23
-18
-13
-8
-5
-1
1
6
10
16
24
35
46
55
61
67
73
79
84
88
92
96
98
98
96
93
88
82
74
61
47
35
25
14
4
0
-2
-4
-6
-8
-10
-12
-14
-17
-19
-22
-24
-26
-28
-30
-33
-39
-45
-47
-49
-52
-56
-59
-56
-49
-46
-43
-40
-37
-34
-32
-29
-25
-22
-19
-16
-15
-14
-14
-14
-13
-12
-10
-9
-8
-7
-6
-5
-3
-2
-1
-1
0
0
0
2
2
3
2
2
3
4
5
6
7
7
8
9
10
11
12
12
12
11
11
11
12
13
14
15
17
19
23
26
29
32
35
37
41
46
50
54
55
55
53
50
46
41
35
27
13
4
0
-1
-4
-6
-8
-10
-11
-12
-12
-11
-9
-6
-1
4
12
28
58
107
173
261
370
496
622
731
787
805
779
698
561
396
230
87
-16
-59
-71
-78
-84
-90
-95
-99
-102
-105
-108
-112
-114
-116
-117
-118
-118
-117
-115
-112
-108
-104
-99
-95
-89
-83
-78
-76
-74
-73
-72
-71
-70
-69
-67
-66
-64
-62
-60
-56
-51
-45
-34
-16
-8
-4
-1
0
3
6
9
14
19
25
32
44
56
69
77
84
89
93
97
99
99
97
94
89
84
78
72
63
52
42
32
21
10
3
0
-4
-8
-12
-16
-21
-27
-33
-28
-24
-22
-20
-18
-17
-18
-19
-22
-24
-26
-27
-28
-30
-32
-34
-34
-34
-33
-33
-34
-34
-34
-34
-33
-32
-31
-31
-31
-31
-30
-29
-28
-28
-29
-30
-32
-33
-34
-36
-35
-30
-26
-24
-22
-20
-17
-14
-11
-7
-5
-2
0
2
3
4
3
2
1
0
0
-1
-2
-4
-5
-6
-7
-8
-8
-9
-8
-7
-6
-3
0
2
5
8
12
20
29
40
46
50
54
57
60
61
62
61
59
57
53
50
46
42
36
29
21
13
8
3
0
-3
-6
-8
-10
-10
-10
-10
-10
-9
-8
-6
-3
0
11
45
100
178
277
393
522
655
776
855
864
830
715
560
391
237
115
29
-24
-54
-74
-86
-93
-97
-100
-103
-104
-106
-107
-109
-110
-112
-113
-113
-109
-103
-97
-93
-89
-86
-82
-80
-78
-76
-75
-74
-74
-74
-73
-73
-72
-71
-70
-67
-64
-61
-58
-54
-50
-44
-37
-28
-18
-4
4
10
16
21
28
38
47
57
67
78
86
93
98
101
102
103
104
105
106
106
105
100
93
86
77
69
61
49
29
17
11
6
2
1
1
2
2
3
4
6
9
11
8
2
-3
-11
-14
-16
-18
-19
-20
-22
-23
-23
-23
-23
-22
-21
-19
-16
-25
-34
-40
-44
-44
-41
-37
-32
-25
-14
-9
-6
-3
-1
0
0
1
1
1
1
1
1
1
1
0
0
0
0
0
0
0
0
0
0
2
3
5
6
7
9
11
13
15
16
15
12
8
3
-1
-9
-13
-10
-5
-2
0
1
2
3
5
6
8
10
12
15
19
27
37
44
49
53
57
60
63
66
71
78
82
84
87
89
83
64
40
25
13
5
0
-5
-10
-16
-19
-15
-9
-6
-3
-1
0
2
4
6
8
11
16
33
64
112
179
264
367
484
606
717
802
829
822
753
628
475
318
180
75
3
-49
-90
-110
-117
-111
-103
-97
-98
-111
-119
-125
-130
-134
-135
-133
-131
-127
-124
-122
-119
-116
-112
-109
-106
-104
-102
-101
-99
-96
-94
-91
-88
-84
-79
-73
-68
-63
-56
-51
-48
-46
-43
-41
-37
-33
-28
-21
-11
-2
6
15
24
37
52
62
68
74
79
85
91
98
101
99
92
83
69
58
49
39
30
21
12
8
6
4
3
2
0
0
-2
-4
-5
-6
-8
-9
-11
-13
-16
-22
-27
-28
-27
-25
-22
-19
-20
-29
-36
-42
-46
-47
-48
-48
-49
-49
-49
-43
-40
-37
-36
-35
-33
-32
-30
-28
-25
-22
-16
-17
-31
-39
-45
-50
-54
-56
-55
-53
-48
-42
-21
6
14
17
20
14
8
5
2
0
0
1
3
5
8
11
17
16
7
0
-5
-11
-13
-14
-15
-16
-18
-17
-7
0
7
12
16
19
21
22
23
23
24
24
25
25
25
26
26
27
28
28
28
29
30
31
33
34
37
42
56
72
85
91
95
97
97
92
85
76
64
56
45
32
19
3
-7
-13
-17
-20
-23
-24
-27
-30
-32
-29
-22
-2
26
76
154
261
393
538
682
809
902
942
915
821
669
480
285
121
12
-25
-38
-47
-55
-82
-119
-141
-149
-152
-149
-142
-137
-130
-123
-116
-109
-102
-95
-89
-84
-80
-77
-75
-74
-75
-78
-81
-85
-89
-94
-99
-101
-102
-104
-106
-98
-85
-71
-56
-42
-31
-23
-10
-2
2
6
10
14
17
20
24
28
35
41
47
56
71
89
96
97
98
98
99
99
97
94
89
84
78
72
65
60
54
44
27
17
13
9
7
4
1
-2
-5
-8
-11
-15
-20
-25
-29
-32
-34
-36
-38
-40
-41
-43
-44
-44
-44
-43
-41
-38
-35
-32
-27
-23
-24
-29
-36
-40
-44
-49
-52
-53
-51
-47
-40
-34
-29
-24
-18
-12
-8
-6
-4
-3
-1
0
1
2
4
4
5
6
7
9
11
12
12
12
12
13
14
16
17
17
16
15
13
12
11
10
9
8
7
6
5
5
4
4
3
3
4
4
5
6
7
8
9
10
11
12
13
15
17
21
36
49
56
61
66
70
75
81
81
70
54
33
21
13
7
2
-2
-8
-14
-18
-15
-10
-6
-3
-1
0
3
5
8
13
19
44
88
155
246
357
479
598
700
774
790
779
704
577
416
254
121
30
-15
-37
-54
-72
-83
-89
-92
-95
-97
-99
-101
-103
-107
-109
-103
-92
-86
-82
-78
-76
-75
-74
-73
-70
-68
-65
-64
-62
-61
-60
-59
-57
-55
-53
-51
-48
-45
-41
-38
-35
-33
-31
-28
-24
-17
-6
6
20
33
43
51
57
62
67
71
73
74
76
78
79
80
81
82
82
81
81
79
77
74
71
68
65
59
49
41
35
29
23
15
6
-7
-27
-38
-43
-47
-50
-52
-53
-52
-51
-49
-48
-46
-45
-43
-41
-39
-38
-37
-37
-39
-40
-42
-44
-49
-53
-49
-41
-37
-34
-32
-30
-28
-26
-24
-22
-19
-17
-14
-12
-11
-10
-9
-8
-6
-5
-3
0
1
3
5
6
6
6
5
4
2
1
0
0
-1
-2
-3
-4
-5
-7
-8
-9
-9
-9
-9
-8
-7
-7
-7
-7
-8
-8
-10
-8
2
14
26
39
51
62
66
68
70
72
70
54
36
19
8
0
-7
-12
-15
-18
-22
-21
